U [m/s],P [MW]
3,0.07
3.5,0.302
4,0.595
4.5,0.958
5,1.412
5.5,2.001
6,2.656
6.5,3.443
7,4.339
7.5,5.339
8,6.481
8.5,7.752
9,9.178
9.5,10.771
10,12.527
10.5,14.661
11,14.994
11.5,15
12,15
12.5,15
13,15
13.5,15
14,15
14.5,15
15,15
15.5,15
16,15
16.5,15
17,15
17.5,15
18,15
18.5,15
19,15
19.5,15
20,15
20.5,15
21,15
21.5,15
22,15
22.5,15
23,15
23.5,15
24,15
24.5,15
25,15
